---- Page: "AC Analysis"
---- Graph: "AC Analysis"
---- Left Axis: LOGARITHMIC "Magnitude"
---- Bottom Axis: LOGARITHMIC "Frequency (Hz)"
---- Trace: 1 LEFT BOTTOM "V(2)"
1.000000000000e+000	5.055474624348e-006
1.122018454302e+000	5.056117458268e-006
1.258925411794e+000	5.056926621854e-006
1.412537544623e+000	5.057945114550e-006
1.584893192461e+000	5.059227029029e-006
1.778279410039e+000	5.060840402238e-006
1.995262314969e+000	5.062870787712e-006
2.238721138568e+000	5.065425734491e-006
2.511886431510e+000	5.068640390670e-006
2.818382931264e+000	5.072684506084e-006
3.162277660168e+000	5.077771166145e-006
3.548133892336e+000	5.084167655292e-006
3.981071705535e+000	5.092208933432e-006
4.466835921510e+000	5.102314282682e-006
5.011872336273e+000	5.115007776206e-006
5.623413251903e+000	5.130943286528e-006
6.309573444802e+000	5.150934805655e-006
7.079457843841e+000	5.175992846569e-006
7.943282347243e+000	5.207367599910e-006
8.912509381337e+000	5.246599300034e-006
1.000000000000e+001	5.295575831434e-006
1.122018454302e+001	5.356596933612e-006
1.258925411794e+001	5.432443413998e-006
1.412537544623e+001	5.526448554659e-006
1.584893192461e+001	5.642567566771e-006
1.778279410039e+001	5.785439768855e-006
1.995262314969e+001	5.960437648179e-006
2.238721138568e+001	6.173697653812e-006
2.511886431510e+001	6.432130008282e-006
2.818382931264e+001	6.743409033237e-006
3.162277660168e+001	7.115950891180e-006
3.548133892336e+001	7.558890812731e-006
3.981071705535e+001	8.082075085630e-006
4.466835921510e+001	8.696082997863e-006
5.011872336273e+001	9.412290405090e-006
5.623413251903e+001	1.024298083686e-005
6.309573444802e+001	1.120150404151e-005
7.079457843841e+001	1.230247740952e-005
7.943282347243e+001	1.356202372848e-005
8.912509381337e+001	1.499803910657e-005
1.000000000000e+002	1.663048688277e-005
1.122018454302e+002	1.848171599745e-005
1.258925411794e+002	2.057680489766e-005
1.412537544623e+002	2.294393422593e-005
1.584893192461e+002	2.561479316908e-005
1.778279410039e+002	2.862502552218e-005
1.995262314969e+002	3.201472237963e-005
2.238721138568e+002	3.582896906163e-005
2.511886431510e+002	4.011845453266e-005
2.818382931264e+002	4.494015226168e-005
3.162277660168e+002	5.035808226684e-005
3.548133892336e+002	5.644416501595e-005
3.981071705535e+002	6.327917894488e-005
4.466835921510e+002	7.095383462626e-005
5.011872336273e+002	7.956998008464e-005
5.623413251903e+002	8.924195343176e-005
6.309573444802e+002	1.000981009005e-004
7.079457843841e+002	1.122824805166e-004
7.943282347243e+002	1.259567740822e-004
8.912509381337e+002	1.413024328918e-004
1.000000000000e+003	1.585230856866e-004
1.122018454302e+003	1.778472408248e-004
1.258925411794e+003	1.995313185391e-004
1.412537544623e+003	2.238630535297e-004
1.584893192461e+003	2.511653130484e-004
1.778279410039e+003	2.818003811399e-004
1.995262314969e+003	3.161747658888e-004
2.238721138568e+003	3.547445934557e-004
2.511886431510e+003	3.980216604691e-004
2.818382931264e+003	4.465802250686e-004
3.162277660168e+003	5.010646266912e-004
3.548133892336e+003	5.621978356769e-004
3.981071705535e+003	6.307910460959e-004
4.466835921510e+003	7.077544390208e-004
5.011872336273e+003	7.941092589745e-004
5.623413251903e+003	8.910013636642e-004
6.309573444802e+003	9.997164266148e-004
7.079457843841e+003	1.121696994162e-003
7.943282347243e+003	1.258561622767e-003
8.912509381337e+003	1.412126350070e-003
1.000000000000e+004	1.584428783826e-003
1.122018454302e+004	1.777755127331e-003
1.258925411794e+004	1.994670498445e-003
1.412537544623e+004	2.238052942412e-003
1.584893192461e+004	2.511131586846e-003
1.778279410039e+004	2.817529440951e-003
1.995262314969e+004	3.161311400960e-003
2.238721138568e+004	3.547038090396e-003
2.511886431510e+004	3.979826237731e-003
2.818382931264e+004	4.465416375872e-003
3.162277660168e+004	5.010248738151e-003
3.548133892336e+004	5.621548324508e-003
3.981071705535e+004	6.307420219491e-003
4.466835921510e+004	7.076956360268e-003
5.011872336273e+004	7.940355077350e-003
5.623413251903e+004	8.909054861505e-003
6.309573444802e+004	9.995883944411e-003
7.079457843841e+004	1.121522741338e-002
7.943282347243e+004	1.258321370433e-002
8.912509381337e+004	1.411792242112e-002
1.000000000000e+005	1.583961549599e-002
1.122018454302e+005	1.777099371174e-002
1.258925411794e+005	1.993748051420e-002
1.412537544623e+005	2.236753480391e-002
1.584893192461e+005	2.509299393553e-002
1.778279410039e+005	2.814944736931e-002
1.995262314969e+005	3.157664016890e-002
2.238721138568e+005	3.541890362294e-002
2.511886431510e+005	3.972560741195e-002
2.818382931264e+005	4.455162357348e-002
3.162277660168e+005	4.995778653886e-002
3.548133892336e+005	5.601132506775e-002
3.981071705535e+005	6.278623015214e-002
4.466835921510e+005	7.036350686123e-002
5.011872336273e+005	7.883123644474e-002
5.623413251903e+005	8.828434652706e-002
6.309573444802e+005	9.882395081504e-002
7.079457843841e+005	1.105560750040e-001
7.943282347243e+005	1.235895336986e-001
8.912509381337e+005	1.380326684833e-001
1.000000000000e+006	1.539886094938e-001
1.122018454302e+006	1.715487001055e-001
1.258925411794e+006	1.907837565494e-001
1.412537544623e+006	2.117329650245e-001
1.584893192461e+006	2.343905029184e-001
1.778279410039e+006	2.586904612712e-001
1.995262314969e+006	2.844913649743e-001
2.238721138568e+006	3.115624784923e-001
2.511886431510e+006	3.395749547840e-001
2.818382931264e+006	3.681013739236e-001
3.162277660168e+006	3.966268581397e-001
3.548133892336e+006	4.245733665668e-001
3.981071705535e+006	4.513359965751e-001
4.466835921510e+006	4.763268335911e-001
5.011872336273e+006	4.990193465873e-001
5.623413251903e+006	5.189857749664e-001
6.309573444802e+006	5.359218752697e-001
7.079457843841e+006	5.496570739281e-001
7.943282347243e+006	5.601519081032e-001
8.912509381337e+006	5.674870423967e-001
1.000000000000e+007	5.718483697399e-001
---- End Trace: 1 "V(2)"

---- Trace: 2 LEFT BOTTOM "V(vin)"
1.000000000000e+000	1.000000000000e+000
1.122018454302e+000	1.000000000000e+000
1.258925411794e+000	1.000000000000e+000
1.412537544623e+000	1.000000000000e+000
1.584893192461e+000	1.000000000000e+000
1.778279410039e+000	1.000000000000e+000
1.995262314969e+000	1.000000000000e+000
2.238721138568e+000	1.000000000000e+000
2.511886431510e+000	1.000000000000e+000
2.818382931264e+000	1.000000000000e+000
3.162277660168e+000	1.000000000000e+000
3.548133892336e+000	1.000000000000e+000
3.981071705535e+000	1.000000000000e+000
4.466835921510e+000	1.000000000000e+000
5.011872336273e+000	1.000000000000e+000
5.623413251903e+000	1.000000000000e+000
6.309573444802e+000	1.000000000000e+000
7.079457843841e+000	1.000000000000e+000
7.943282347243e+000	1.000000000000e+000
8.912509381337e+000	1.000000000000e+000
1.000000000000e+001	1.000000000000e+000
1.122018454302e+001	1.000000000000e+000
1.258925411794e+001	1.000000000000e+000
1.412537544623e+001	1.000000000000e+000
1.584893192461e+001	1.000000000000e+000
1.778279410039e+001	1.000000000000e+000
1.995262314969e+001	1.000000000000e+000
2.238721138568e+001	1.000000000000e+000
2.511886431510e+001	1.000000000000e+000
2.818382931264e+001	1.000000000000e+000
3.162277660168e+001	1.000000000000e+000
3.548133892336e+001	1.000000000000e+000
3.981071705535e+001	1.000000000000e+000
4.466835921510e+001	1.000000000000e+000
5.011872336273e+001	1.000000000000e+000
5.623413251903e+001	1.000000000000e+000
6.309573444802e+001	1.000000000000e+000
7.079457843841e+001	1.000000000000e+000
7.943282347243e+001	1.000000000000e+000
8.912509381337e+001	1.000000000000e+000
1.000000000000e+002	1.000000000000e+000
1.122018454302e+002	1.000000000000e+000
1.258925411794e+002	1.000000000000e+000
1.412537544623e+002	1.000000000000e+000
1.584893192461e+002	1.000000000000e+000
1.778279410039e+002	1.000000000000e+000
1.995262314969e+002	1.000000000000e+000
2.238721138568e+002	1.000000000000e+000
2.511886431510e+002	1.000000000000e+000
2.818382931264e+002	1.000000000000e+000
3.162277660168e+002	1.000000000000e+000
3.548133892336e+002	1.000000000000e+000
3.981071705535e+002	1.000000000000e+000
4.466835921510e+002	1.000000000000e+000
5.011872336273e+002	1.000000000000e+000
5.623413251903e+002	1.000000000000e+000
6.309573444802e+002	1.000000000000e+000
7.079457843841e+002	1.000000000000e+000
7.943282347243e+002	1.000000000000e+000
8.912509381337e+002	1.000000000000e+000
1.000000000000e+003	1.000000000000e+000
1.122018454302e+003	1.000000000000e+000
1.258925411794e+003	1.000000000000e+000
1.412537544623e+003	1.000000000000e+000
1.584893192461e+003	1.000000000000e+000
1.778279410039e+003	1.000000000000e+000
1.995262314969e+003	1.000000000000e+000
2.238721138568e+003	1.000000000000e+000
2.511886431510e+003	1.000000000000e+000
2.818382931264e+003	1.000000000000e+000
3.162277660168e+003	1.000000000000e+000
3.548133892336e+003	1.000000000000e+000
3.981071705535e+003	1.000000000000e+000
4.466835921510e+003	1.000000000000e+000
5.011872336273e+003	1.000000000000e+000
5.623413251903e+003	1.000000000000e+000
6.309573444802e+003	1.000000000000e+000
7.079457843841e+003	1.000000000000e+000
7.943282347243e+003	1.000000000000e+000
8.912509381337e+003	1.000000000000e+000
1.000000000000e+004	1.000000000000e+000
1.122018454302e+004	1.000000000000e+000
1.258925411794e+004	1.000000000000e+000
1.412537544623e+004	1.000000000000e+000
1.584893192461e+004	1.000000000000e+000
1.778279410039e+004	1.000000000000e+000
1.995262314969e+004	1.000000000000e+000
2.238721138568e+004	1.000000000000e+000
2.511886431510e+004	1.000000000000e+000
2.818382931264e+004	1.000000000000e+000
3.162277660168e+004	1.000000000000e+000
3.548133892336e+004	1.000000000000e+000
3.981071705535e+004	1.000000000000e+000
4.466835921510e+004	1.000000000000e+000
5.011872336273e+004	1.000000000000e+000
5.623413251903e+004	1.000000000000e+000
6.309573444802e+004	1.000000000000e+000
7.079457843841e+004	1.000000000000e+000
7.943282347243e+004	1.000000000000e+000
8.912509381337e+004	1.000000000000e+000
1.000000000000e+005	1.000000000000e+000
1.122018454302e+005	1.000000000000e+000
1.258925411794e+005	1.000000000000e+000
1.412537544623e+005	1.000000000000e+000
1.584893192461e+005	1.000000000000e+000
1.778279410039e+005	1.000000000000e+000
1.995262314969e+005	1.000000000000e+000
2.238721138568e+005	1.000000000000e+000
2.511886431510e+005	1.000000000000e+000
2.818382931264e+005	1.000000000000e+000
3.162277660168e+005	1.000000000000e+000
3.548133892336e+005	1.000000000000e+000
3.981071705535e+005	1.000000000000e+000
4.466835921510e+005	1.000000000000e+000
5.011872336273e+005	1.000000000000e+000
5.623413251903e+005	1.000000000000e+000
6.309573444802e+005	1.000000000000e+000
7.079457843841e+005	1.000000000000e+000
7.943282347243e+005	1.000000000000e+000
8.912509381337e+005	1.000000000000e+000
1.000000000000e+006	1.000000000000e+000
1.122018454302e+006	1.000000000000e+000
1.258925411794e+006	1.000000000000e+000
1.412537544623e+006	1.000000000000e+000
1.584893192461e+006	1.000000000000e+000
1.778279410039e+006	1.000000000000e+000
1.995262314969e+006	1.000000000000e+000
2.238721138568e+006	1.000000000000e+000
2.511886431510e+006	1.000000000000e+000
2.818382931264e+006	1.000000000000e+000
3.162277660168e+006	1.000000000000e+000
3.548133892336e+006	1.000000000000e+000
3.981071705535e+006	1.000000000000e+000
4.466835921510e+006	1.000000000000e+000
5.011872336273e+006	1.000000000000e+000
5.623413251903e+006	1.000000000000e+000
6.309573444802e+006	1.000000000000e+000
7.079457843841e+006	1.000000000000e+000
7.943282347243e+006	1.000000000000e+000
8.912509381337e+006	1.000000000000e+000
1.000000000000e+007	1.000000000000e+000
---- End Trace: 2 "V(vin)"

---- Trace: 3 LEFT BOTTOM "V(vout)"
1.000000000000e+000	9.999898940112e-001
1.122018454302e+000	9.999898940112e-001
1.258925411794e+000	9.999898940111e-001
1.412537544623e+000	9.999898940111e-001
1.584893192461e+000	9.999898940111e-001
1.778279410039e+000	9.999898940111e-001
1.995262314969e+000	9.999898940111e-001
2.238721138568e+000	9.999898940110e-001
2.511886431510e+000	9.999898940110e-001
2.818382931264e+000	9.999898940110e-001
3.162277660168e+000	9.999898940109e-001
3.548133892336e+000	9.999898940108e-001
3.981071705535e+000	9.999898940107e-001
4.466835921510e+000	9.999898940106e-001
5.011872336273e+000	9.999898940104e-001
5.623413251903e+000	9.999898940102e-001
6.309573444802e+000	9.999898940100e-001
7.079457843841e+000	9.999898940097e-001
7.943282347243e+000	9.999898940093e-001
8.912509381337e+000	9.999898940088e-001
1.000000000000e+001	9.999898940082e-001
1.122018454302e+001	9.999898940074e-001
1.258925411794e+001	9.999898940064e-001
1.412537544623e+001	9.999898940051e-001
1.584893192461e+001	9.999898940036e-001
1.778279410039e+001	9.999898940016e-001
1.995262314969e+001	9.999898939991e-001
2.238721138568e+001	9.999898939960e-001
2.511886431510e+001	9.999898939920e-001
2.818382931264e+001	9.999898939871e-001
3.162277660168e+001	9.999898939808e-001
3.548133892336e+001	9.999898939729e-001
3.981071705535e+001	9.999898939630e-001
4.466835921510e+001	9.999898939506e-001
5.011872336273e+001	9.999898939349e-001
5.623413251903e+001	9.999898939151e-001
6.309573444802e+001	9.999898938902e-001
7.079457843841e+001	9.999898938589e-001
7.943282347243e+001	9.999898938194e-001
8.912509381337e+001	9.999898937698e-001
1.000000000000e+002	9.999898937073e-001
1.122018454302e+002	9.999898936286e-001
1.258925411794e+002	9.999898935295e-001
1.412537544623e+002	9.999898934048e-001
1.584893192461e+002	9.999898932478e-001
1.778279410039e+002	9.999898930502e-001
1.995262314969e+002	9.999898928013e-001
2.238721138568e+002	9.999898924881e-001
2.511886431510e+002	9.999898920937e-001
2.818382931264e+002	9.999898915972e-001
3.162277660168e+002	9.999898909721e-001
3.548133892336e+002	9.999898901852e-001
3.981071705535e+002	9.999898891946e-001
4.466835921510e+002	9.999898879474e-001
5.011872336273e+002	9.999898863774e-001
5.623413251903e+002	9.999898844008e-001
6.309573444802e+002	9.999898819124e-001
7.079457843841e+002	9.999898787797e-001
7.943282347243e+002	9.999898748359e-001
8.912509381337e+002	9.999898698710e-001
1.000000000000e+003	9.999898636205e-001
1.122018454302e+003	9.999898557515e-001
1.258925411794e+003	9.999898458451e-001
1.412537544623e+003	9.999898333737e-001
1.584893192461e+003	9.999898176731e-001
1.778279410039e+003	9.999897979072e-001
1.995262314969e+003	9.999897730235e-001
2.238721138568e+003	9.999897416967e-001
2.511886431510e+003	9.999897022586e-001
2.818382931264e+003	9.999896526090e-001
3.162277660168e+003	9.999895901039e-001
3.548133892336e+003	9.999895114146e-001
3.981071705535e+003	9.999894123507e-001
4.466835921510e+003	9.999892876367e-001
5.011872336273e+003	9.999891306311e-001
5.623413251903e+003	9.999889329728e-001
6.309573444802e+003	9.999886841360e-001
7.079457843841e+003	9.999883708692e-001
7.943282347243e+003	9.999879764900e-001
8.912509381337e+003	9.999874799967e-001
1.000000000000e+004	9.999868549497e-001
1.122018454302e+004	9.999860680635e-001
1.258925411794e+004	9.999850774350e-001
1.412537544623e+004	9.999838303115e-001
1.584893192461e+004	9.999822602820e-001
1.778279410039e+004	9.999802837416e-001
1.995262314969e+004	9.999777954400e-001
2.238721138568e+004	9.999746628781e-001
2.511886431510e+004	9.999707192547e-001
2.818382931264e+004	9.999657545878e-001
3.162277660168e+004	9.999595045388e-001
3.548133892336e+004	9.999516363462e-001
3.981071705535e+004	9.999417311206e-001
4.466835921510e+004	9.999292615641e-001
5.011872336273e+004	9.999135639307e-001
5.623413251903e+004	9.998938027448e-001
6.309573444802e+004	9.998689264130e-001
7.079457843841e+004	9.998376113868e-001
7.943282347243e+004	9.997981919399e-001
8.912509381337e+004	9.997485718737e-001
1.000000000000e+005	9.996861135410e-001
1.122018454302e+005	9.996074984161e-001
1.258925411794e+005	9.995085520100e-001
1.412537544623e+005	9.993840241576e-001
1.584893192461e+005	9.992273135338e-001
1.778279410039e+005	9.990301226064e-001
1.995262314969e+005	9.987820260390e-001
2.238721138568e+005	9.984699317489e-001
2.511886431510e+005	9.980774093701e-001
2.818382931264e+005	9.975838557836e-001
3.162277660168e+005	9.969634617975e-001
3.548133892336e+005	9.961839382857e-001
3.981071705535e+005	9.952049547770e-001
4.466835921510e+005	9.939762397243e-001
5.011872336273e+005	9.924352913907e-001
5.623413251903e+005	9.905046544742e-001
6.309573444802e+005	9.880887348999e-001
7.079457843841e+005	9.850701604241e-001
7.943282347243e+005	9.813057572414e-001
8.912509381337e+005	9.766223148094e-001
1.000000000000e+006	9.708124665874e-001
1.122018454302e+006	9.636312361553e-001
1.258925411794e+006	9.547940912772e-001
1.412537544623e+006	9.439776980832e-001
1.584893192461e+006	9.308249204775e-001
1.778279410039e+006	9.149558524718e-001
1.995262314969e+006	8.959866135945e-001
2.238721138568e+006	8.735570273583e-001
2.511886431510e+006	8.473668992036e-001
2.818382931264e+006	8.172183433156e-001
3.162277660168e+006	7.830587939788e-001
3.548133892336e+006	7.450168293969e-001
3.981071705535e+006	7.034219972706e-001
4.466835921510e+006	6.588015906732e-001
5.011872336273e+006	6.118519694068e-001
5.623413251903e+006	5.633882858242e-001
6.309573444802e+006	5.142819721104e-001
7.079457843841e+006	4.653978009513e-001
7.943282347243e+006	4.175408751018e-001
8.912509381337e+006	3.714195034019e-001
1.000000000000e+007	3.276246913089e-001
---- End Trace: 3 "V(vout)"

---- Trace: 4 LEFT BOTTOM "V(vout)/(-V(2))"
1.000000000000e+000	1.978033653250e+005
1.122018454302e+000	1.977782166385e+005
1.258925411794e+000	1.977465699600e+005
1.412537544623e+000	1.977067507385e+005
1.584893192461e+000	1.976566555075e+005
1.778279410039e+000	1.975936434527e+005
1.995262314969e+000	1.975144015996e+005
2.238721138568e+000	1.974147774396e+005
2.511886431510e+000	1.972895721408e+005
2.818382931264e+000	1.971322862306e+005
3.162277660168e+000	1.969348088543e+005
3.548133892336e+000	1.966870413823e+005
3.981071705535e+000	1.963764462698e+005
4.466835921510e+000	1.959875144118e+005
5.011872336273e+000	1.955011483389e+005
5.623413251903e+000	1.948939674769e+005
6.309573444802e+000	1.941375559466e+005
7.079457843841e+000	1.931976962975e+005
7.943282347243e+000	1.920336666892e+005
8.912509381337e+000	1.905977256548e+005
1.000000000000e+001	1.888349682526e+005
1.122018454302e+001	1.866838043633e+005
1.258925411794e+001	1.840773695736e+005
1.412537544623e+001	1.809462051650e+005
1.584893192461e+001	1.772224935139e+005
1.778279410039e+001	1.728459605413e+005
1.995262314969e+001	1.677712196695e+005
2.238721138568e+001	1.619758449587e+005
2.511886431510e+001	1.554679231770e+005
2.818382931264e+001	1.482914485920e+005
3.162277660168e+001	1.405279363606e+005
3.548133892336e+001	1.322932052794e+005
3.981071705535e+001	1.237293496247e+005
4.466835921510e+001	1.149931404974e+005
5.011872336273e+001	1.062429919708e+005
5.623413251903e+001	9.762684416204e+004
6.309573444802e+001	8.927282355873e+004
7.079457843841e+001	8.128361959723e+004
7.943282347243e+001	7.373456305929e+004
8.912509381337e+001	6.667470905125e+004
1.000000000000e+002	6.012992287935e+004
1.122018454302e+002	5.410698301859e+004
1.258925411794e+002	4.859791879754e+004
1.412537544623e+002	4.358406381215e+004
1.584893192461e+002	3.903954588456e+004
1.778279410039e+002	3.493411358796e+004
1.995262314969e+002	3.123531358303e+004
2.238721138568e+002	2.791009394571e+004
2.511886431510e+002	2.492593256003e+004
2.818382931264e+002	2.225159108884e+004
3.162277660168e+002	1.985758483958e+004
3.548133892336e+002	1.771644402752e+004
3.981071705535e+002	1.580282655161e+004
4.466835921510e+002	1.409352846417e+004
5.011872336273e+002	1.256742662640e+004
